timestamp,sample
1726836050917,-58
1726836051045,254
1726836051053,26
1726836051061,-739
1726836051069,-992
1726836051077,-4
1726836051085,1402
1726836051093,1825
1726836051101,1035
1726836051109,136
1726836051117,-43
1726836051125,-10
1726836051133,-115
1726836051141,-131
1726836051149,-135
1726836051157,-147
1726836051165,-125
1726836051173,-117
1726836051181,-113
1726836051189,-104
1726836051197,-96
1726836051205,-86
1726836051213,-81
1726836051221,-73
1726836051229,-71
1726836051237,-67
1726836051245,-60
1726836051253,-59
1726836051261,-59
1726836051269,-59
1726836051277,-56
1726836051285,-52
1726836051293,-51
1726836051301,-49
1726836051309,-50
1726836051317,-50
1726836051325,-52
1726836051333,-54
1726836051341,-58
1726836051349,-61
1726836051357,-61
1726836051365,-59
1726836051373,-54
1726836051381,-54
1726836051389,-42
1726836051397,-24
1726836051405,-11
1726836051413,-18
1726836051421,-35
1726836051429,-57
1726836051437,-73
1726836051445,-87
1726836051453,-91
1726836051461,-85
1726836051469,-70
1726836051477,-61
1726836051485,-49
1726836051493,-58
1726836051501,-117
1726836051509,-9
1726836051517,464
1726836051525,906
1726836051533,652
1726836051541,-336
1726836051549,-1217
1726836051557,-1225
1726836051565,-540
1726836051573,53
1726836051581,174
1726836051589,72
1726836051597,2
1726836051605,-25
1726836051613,-31
1726836051621,-39
1726836051629,-48
1726836051637,-52
1726836051645,-56
1726836051653,-59
1726836051661,-57
1726836051669,-52
1726836051677,-48
1726836051685,-48
1726836051693,-44
1726836051701,-46
1726836051709,-45
1726836051717,-44
1726836051725,-42
1726836051733,-40
1726836051741,-35
1726836051749,-32
1726836051757,-32
1726836051765,-31
1726836051773,-33
1726836051781,-36
1726836051789,-38
1726836051797,-45
1726836051805,-52
1726836051813,-59
1726836051821,-61
1726836051829,-60
1726836051837,-53
1726836051845,-51
1726836051853,-45
1726836051861,-46
1726836051869,-61
1726836051877,-81
1726836051885,-98
1726836051893,-104
1726836051901,-107
1726836051909,-109
1726836051917,-106
1726836051925,-100
1726836051933,-93
1726836051941,-83
1726836051949,-73
1726836051957,-59
1726836051965,-47
1726836051973,-38
1726836051981,-34
1726836051989,-35
1726836051997,-40
1726836052005,-45
1726836052013,-51
1726836052021,-55
1726836052029,-61
1726836052037,-69
1726836052045,-77
1726836052053,-80
1726836052061,-82
1726836052069,-81
1726836052077,-79
1726836052085,-83
1726836052093,-77
1726836052101,-72
1726836052109,-77
1726836052117,-82
1726836052125,-80
1726836052133,-73
1726836052141,-66
1726836052149,-66
1726836052157,-70
1726836052165,-74
1726836052173,-69
1726836052181,-67
1726836052189,-66
1726836052197,-66
1726836052205,-67
1726836052213,-69
1726836052221,-66
1726836052229,-60
1726836052237,-57
1726836052245,-61
1726836052253,-66
1726836052261,-69
1726836052269,-70
1726836052277,-63
1726836052285,-58
1726836052293,-59
1726836052301,-63
1726836052309,-70
1726836052317,-71
1726836052325,-67
1726836052333,-50
1726836052341,-27
1726836052349,-21
1726836052357,-32
1726836052365,-53
1726836052373,-66
1726836052381,-77
1726836052389,-91
1726836052397,-95
1726836052405,-90
1726836052413,-77
1726836052421,-65
1726836052429,-53
1726836052437,-52
1726836052445,-110
1726836052453,-64
1726836052461,340
1726836052469,847
1726836052477,767
1726836052485,-115
1726836052493,-1091
1726836052501,-1286
1726836052509,-686
1726836052517,-27
1726836052525,175
1726836052533,88
1726836052541,10
1726836052549,-22
1726836052557,-33
1726836052565,-42
1726836052573,-53
1726836052581,-58
1726836052589,-55
1726836052597,-53
1726836052605,-51
1726836052613,-53
1726836052621,-53
1726836052629,-46
1726836052637,-42
1726836052645,-42
1726836052653,-46
1726836052661,-44
1726836052669,-39
1726836052677,-31
1726836052685,-28
1726836052693,-28
1726836052701,-34
1726836052709,-36
1726836052717,-36
1726836052725,-33
1726836052733,-35
1726836052741,-39
1726836052749,-45
1726836052757,-50
1726836052765,-56
1726836052773,-55
1726836052781,-52
1726836052789,-44
1726836052797,-44
1726836052805,-49
1726836052813,-60
1726836052821,-73
1726836052829,-82
1726836052837,-92
1726836052845,-106
1726836052853,-111
1726836052861,-109
1726836052869,-101
1726836052877,-92
1726836052885,-82
1726836052893,-72
1726836052901,-59
1726836052909,-44
1726836052917,-38
1726836052925,-38
1726836052933,-38
1726836052941,-40
1726836052949,-44
1726836052957,-45
1726836052965,-49
1726836052973,-54
1726836052981,-63
1726836052989,-69
1726836052997,-75
1726836053005,-75
1726836053013,-71
1726836053021,-73
1726836053029,-80
1726836053037,-87
1726836053045,-86
1726836053053,-78
1726836053061,-75
1726836053069,-73
1726836053077,-70
1726836053085,-63
1726836053093,-63
1726836053101,-68
1726836053109,-73
1726836053117,-72
1726836053125,-68
1726836053133,-69
1726836053141,-72
1726836053149,-69
1726836053157,-64
1726836053165,-61
1726836053173,-65
1726836053181,-63
1726836053189,-64
1726836053197,-62
1726836053205,-63
1726836053213,-63
1726836053221,-62
1726836053229,-60
1726836053237,-56
1726836053245,-57
1726836053253,-59
1726836053261,-64
1726836053269,-69
1726836053277,-69
1726836053285,-67
1726836053293,-58
1726836053301,-47
1726836053309,-31
1726836053317,-21
1726836053325,-22
1726836053333,-36
1726836053341,-56
1726836053349,-74
1726836053357,-86
1726836053365,-91
1726836053373,-85
1726836053381,-73
1726836053389,-60
1726836053397,-48
1726836053405,-51
1726836053413,-107
1726836053421,-63
1726836053429,347
1726836053437,853
1726836053445,774
1726836053453,-108
1726836053461,-1084
1726836053469,-1288
1726836053477,-692
1726836053485,-30
1726836053493,182
1726836053501,99
1726836053509,17
1726836053517,-18
1726836053525,-27
1726836053533,-32
1726836053541,-41
1726836053549,-42
1726836053557,-48
1726836053565,-48
1726836053573,-41
1726836053581,-35
1726836053589,-39
1726836053597,-46
1726836053605,-49
1726836053613,-46
1726836053621,-38
1726836053629,-38
1726836053637,-36
1726836053645,-34
1726836053653,-32
1726836053661,-30
1726836053669,-28
1726836053677,-30
1726836053685,-32
1726836053693,-32
1726836053701,-31
1726836053709,-34
1726836053717,-42
1726836053725,-53
1726836053733,-56
1726836053741,-56
1726836053749,-50
1726836053757,-43
1726836053765,-39
1726836053773,-43
1726836053781,-57
1726836053789,-69
1726836053797,-80
1726836053805,-90
1726836053813,-98
1726836053821,-110
1726836053829,-109
1726836053837,-101
1726836053845,-90
1726836053853,-76
1726836053861,-58
1726836053869,-47
1726836053877,-45
1726836053885,-46
1726836053893,-41
1726836053901,-33
1726836053909,-24
1726836053917,-33
1726836053925,-46
1726836053933,-56
1726836053941,-56
1726836053949,-59
1726836053957,-66
1726836053965,-81
1726836053973,-84
1726836053981,-79
1726836053989,-73
1726836053997,-75
1726836054005,-84
1726836054013,-84
1726836054021,-77
1726836054029,-70
1726836054037,-69
1726836054045,-71
1726836054053,-78
1726836054061,-81
1726836054069,-80
1726836054077,-75
1726836054085,-69
1726836054093,-68
1726836054101,-75
1726836054109,-80
1726836054117,-76
1726836054125,-74
1726836054133,-72
1726836054141,-76
1726836054149,-74
1726836054157,-68
1726836054165,-59
1726836054173,-58
1726836054181,-53
1726836054189,-56
1726836054197,-60
1726836054205,-67
1726836054213,-71
1726836054221,-75
1726836054229,-73
1726836054237,-70
1726836054245,-70
1726836054253,-70
1726836054261,-68
1726836054269,-64
1726836054277,-56
1726836054285,-37
1726836054293,-21
1726836054301,-16
1726836054309,-27
1726836054317,-42
1726836054325,-58
1726836054333,-76
1726836054341,-88
1726836054349,-85
1726836054357,-77
1726836054365,-62
1726836054373,-52
1726836054381,-41
1726836054389,-74
1726836054397,-104
1726836054405,155
1726836054413,688
1726836054421,896
1726836054429,286
1726836054437,-767
1726836054445,-1316
1726836054453,-963
1726836054461,-240
1726836054469,146
1726836054477,122
1726836054485,23
1726836054493,-11
1726836054501,-22
1726836054509,-30
1726836054517,-48
1726836054525,-56
1726836054533,-53
1726836054541,-49
1726836054549,-52
1726836054557,-56
1726836054565,-55
1726836054573,-50
1726836054581,-46
1726836054589,-47
1726836054597,-51
1726836054605,-49
1726836054613,-45
1726836054621,-39
1726836054629,-34
1726836054637,-28
1726836054645,-28
1726836054653,-31
1726836054661,-40
1726836054669,-42
1726836054677,-42
1726836054685,-43
1726836054693,-49
1726836054701,-52
1726836054709,-62
1726836054717,-62
1726836054725,-58
1726836054733,-44
1726836054741,-37
1726836054749,-40
1726836054757,-51
1726836054765,-65
1726836054773,-79
1726836054781,-95
1726836054789,-108
1726836054797,-115
1726836054805,-117
1726836054813,-112
1726836054821,-102
1726836054829,-82
1726836054837,-67
1726836054845,-59
1726836054853,-55
1726836054861,-50
1726836054869,-42
1726836054877,-39
1726836054885,-41
1726836054893,-44
1726836054901,-47
1726836054909,-48
1726836054917,-52
1726836054925,-61
1726836054933,-68
1726836054941,-74
1726836054949,-79
1726836054957,-85
1726836054965,-87
1726836054973,-83
1726836054981,-77
1726836054989,-76
1726836054997,-80
1726836055005,-80
1726836055013,-75
1726836055021,-69
1726836055029,-70
1726836055037,-74
1726836055045,-75
1726836055053,-76
1726836055061,-72
1726836055069,-69
1726836055077,-69
1726836055085,-71
1726836055093,-69
1726836055101,-64
1726836055109,-65
1726836055117,-67
1726836055125,-70
1726836055133,-72
1726836055141,-69
1726836055149,-66
1726836055157,-65
1726836055165,-66
1726836055173,-65
1726836055181,-67
1726836055189,-63
1726836055197,-62
1726836055205,-63
1726836055213,-68
1726836055221,-69
1726836055229,-72
1726836055237,-72
1726836055245,-71
1726836055253,-70
1726836055261,-68
1726836055269,-54
1726836055277,-31
1726836055285,-17
1726836055293,-24
1726836055301,-47
1726836055309,-71
1726836055317,-83
1726836055325,-91
1726836055333,-97
1726836055341,-97
1726836055349,-86
1726836055357,-70
1726836055365,-57
1726836055373,-46
1726836055381,-94
1726836055389,-95
1726836055397,221
1726836055405,729
1726836055413,806
1726836055421,90
1726836055429,-902
1726836055437,-1283
1726836055445,-824
1726836055453,-138
1726836055461,165
1726836055469,116
1726836055477,25
1726836055485,-17
1726836055493,-34
1726836055501,-41
1726836055509,-44
1726836055517,-47
1726836055525,-47
1726836055533,-53
1726836055541,-54
1726836055549,-52
1726836055557,-52
1726836055565,-53
1726836055573,-51
1726836055581,-46
1726836055589,-41
1726836055597,-44
1726836055605,-46
1726836055613,-42
1726836055621,-33
1726836055629,-28
1726836055637,-28
1726836055645,-33
1726836055653,-39
1726836055661,-42
1726836055669,-40
1726836055677,-40
1726836055685,-43
1726836055693,-50
1726836055701,-55
1726836055709,-57
1726836055717,-50
1726836055725,-43
1726836055733,-37
1726836055741,-33
1726836055749,-36
1726836055757,-49
1726836055765,-63
1726836055773,-85
1726836055781,-100
1726836055789,-108
1726836055797,-104
1726836055805,-93
1726836055813,-84
1726836055821,-72
1726836055829,-65
1726836055837,-56
1726836055845,-47
1726836055853,-41
1726836055861,-34
1726836055869,-35
1726836055877,-38
1726836055885,-43
1726836055893,-46
1726836055901,-51
1726836055909,-58
1726836055917,-65
1726836055925,-70
1726836055933,-73
1726836055941,-74
1726836055949,-75
1726836055957,-80
1726836055965,-81
1726836055973,-81
1726836055981,-78
1726836055989,-75
1726836055997,-72
1726836056005,-71
1726836056013,-69
1726836056021,-65
1726836056029,-61
1726836056037,-66
1726836056045,-70
1726836056053,-73
1726836056061,-67
1726836056069,-63
1726836056077,-65
1726836056085,-69
1726836056093,-68
1726836056101,-67
1726836056109,-62
1726836056117,-61
1726836056125,-61
1726836056133,-63
1726836056141,-63
1726836056149,-60
1726836056157,-59
1726836056165,-63