timestamp,sample
1726836314342,-54
1726836314470,187
1726836314478,25
1726836314486,-576
1726836314494,-887
1726836314502,-324
1726836314510,679
1726836314518,1178
1726836314526,902
1726836314534,438
1726836314542,291
1726836314550,179
1726836314558,1
1726836314566,-37
1726836314574,-53
1726836314582,-74
1726836314590,-69
1726836314598,-73
1726836314606,-70
1726836314614,-59
1726836314622,-52
1726836314630,-45
1726836314638,-40
1726836314646,-31
1726836314654,-28
1726836314662,-25
1726836314670,-25
1726836314678,-25
1726836314686,-23
1726836314694,-21
1726836314702,-21
1726836314710,-16
1726836314718,-12
1726836314726,-9
1726836314734,-13
1726836314742,-17
1726836314750,-23
1726836314758,-27
1726836314766,-34
1726836314774,-41
1726836314782,-49
1726836314790,-53
1726836314798,-50
1726836314806,-42
1726836314814,-38
1726836314822,-45
1726836314830,-55
1726836314838,-70
1726836314846,-82
1726836314854,-93
1726836314862,-100
1726836314870,-96
1726836314878,-89
1726836314886,-85
1726836314894,-78
1726836314902,-68
1726836314910,-63
1726836314918,-55
1726836314926,-44
1726836314934,-37
1726836314942,-41
1726836314950,-46
1726836314958,-50
1726836314966,-50
1726836314974,-52
1726836314982,-62
1726836314990,-69
1726836314998,-71
1726836315006,-71
1726836315014,-75
1726836315022,-81
1726836315030,-84
1726836315038,-81
1726836315046,-86
1726836315054,-90
1726836315062,-89
1726836315070,-78
1726836315078,-66
1726836315086,-63
1726836315094,-69
1726836315102,-73
1726836315110,-73
1726836315118,-71
1726836315126,-70
1726836315134,-68
1726836315142,-67
1726836315150,-67
1726836315158,-69
1726836315166,-70
1726836315174,-66
1726836315182,-65
1726836315190,-69
1726836315198,-67
1726836315206,-64
1726836315214,-63
1726836315222,-66
1726836315230,-66
1726836315238,-65
1726836315246,-66
1726836315254,-63
1726836315262,-64
1726836315270,-69
1726836315278,-76
1726836315286,-76
1726836315294,-75
1726836315302,-72
1726836315310,-65
1726836315318,-41
1726836315326,-21
1726836315334,-21
1726836315342,-43
1726836315350,-64
1726836315358,-80
1726836315366,-89
1726836315374,-96
1726836315382,-95
1726836315390,-85
1726836315398,-71
1726836315406,-57
1726836315414,-45
1726836315422,-70
1726836315430,-114
1726836315438,64
1726836315446,550
1726836315454,849
1726836315462,424
1726836315470,-557
1726836315478,-1243
1726836315486,-1080
1726836315494,-396
1726836315502,98
1726836315510,169
1726836315518,79
1726836315526,7
1726836315534,-23
1726836315542,-28
1726836315550,-43
1726836315558,-52
1726836315566,-50
1726836315574,-45
1726836315582,-44
1726836315590,-49
1726836315598,-57
1726836315606,-56
1726836315614,-48
1726836315622,-45
1726836315630,-44
1726836315638,-43
1726836315646,-39
1726836315654,-36
1726836315662,-34
1726836315670,-34
1726836315678,-36
1726836315686,-40
1726836315694,-40
1726836315702,-37
1726836315710,-38
1726836315718,-46
1726836315726,-60
1726836315734,-68
1726836315742,-74
1726836315750,-68
1726836315758,-60
1726836315766,-48
1726836315774,-42
1726836315782,-40
1726836315790,-49
1726836315798,-58
1726836315806,-72
1726836315814,-82
1726836315822,-89
1726836315830,-94
1726836315838,-100
1726836315846,-100
1726836315854,-90
1726836315862,-74
1726836315870,-66
1726836315878,-62
1726836315886,-61
1726836315894,-58
1726836315902,-55
1726836315910,-50
1726836315918,-46
1726836315926,-47
1726836315934,-52
1726836315942,-62
1726836315950,-69
1726836315958,-71
1726836315966,-74
1726836315974,-80
1726836315982,-86
1726836315990,-84
1726836315998,-80
1726836316006,-78
1726836316014,-75
1726836316022,-74
1726836316030,-72
1726836316038,-72
1726836316046,-75
1726836316054,-78
1726836316062,-78
1726836316070,-76
1726836316078,-75
1726836316086,-73
1726836316094,-67
1726836316102,-66
1726836316110,-66
1726836316118,-65
1726836316126,-61
1726836316134,-66
1726836316142,-70
1726836316150,-70
1726836316158,-61
1726836316166,-53
1726836316174,-54
1726836316182,-67
1726836316190,-72
1726836316198,-69
1726836316206,-60
1726836316214,-60
1726836316222,-65
1726836316230,-65
1726836316238,-62
1726836316246,-67
1726836316254,-73
1726836316262,-71
1726836316270,-57
1726836316278,-40
1726836316286,-23
1726836316294,-22
1726836316302,-32
1726836316310,-57
1726836316318,-77
1726836316326,-85
1726836316334,-88
1726836316342,-89
1726836316350,-88
1726836316358,-72
1726836316366,-59
1726836316374,-52
1726836316382,-75
1726836316390,-97
1726836316398,126
1726836316406,608
1726836316414,846
1726836316422,357
1726836316430,-633
1726836316438,-1304
1726836316446,-1125
1726836316454,-435
1726836316462,95
1726836316470,212
1726836316478,136
1726836316486,45
1726836316494,1
1726836316502,-2
1726836316510,-15
1726836316518,-34
1726836316526,-45
1726836316534,-54
1726836316542,-62
1726836316550,-65
1726836316558,-61
1726836316566,-55
1726836316574,-49
1726836316582,-47
1726836316590,-43
1726836316598,-39
1726836316606,-39
1726836316614,-40
1726836316622,-45
1726836316630,-41
1726836316638,-39
1726836316646,-42
1726836316654,-44
1726836316662,-49
1726836316670,-55
1726836316678,-58
1726836316686,-62
1726836316694,-63
1726836316702,-66
1726836316710,-68
1726836316718,-65
1726836316726,-51
1726836316734,-38
1726836316742,-31
1726836316750,-35
1726836316758,-46
1726836316766,-62
1726836316774,-74
1726836316782,-86
1726836316790,-89
1726836316798,-90
1726836316806,-89
1726836316814,-82
1726836316822,-76
1726836316830,-69
1726836316838,-60
1726836316846,-54
1726836316854,-52
1726836316862,-55
1726836316870,-56
1726836316878,-49
1726836316886,-47
1726836316894,-47
1726836316902,-54
1726836316910,-61
1726836316918,-71
1726836316926,-77
1726836316934,-79
1726836316942,-76
1726836316950,-75
1726836316958,-79
1726836316966,-87
1726836316974,-87
1726836316982,-88
1726836316990,-83
1726836316998,-75
1726836317006,-67
1726836317014,-62
1726836317022,-60
1726836317030,-66
1726836317038,-74
1726836317046,-73
1726836317054,-63
1726836317062,-62
1726836317070,-63
1726836317078,-62
1726836317086,-57
1726836317094,-59
1726836317102,-62
1726836317110,-61
1726836317118,-58
1726836317126,-61
1726836317134,-65
1726836317142,-63
1726836317150,-57
1726836317158,-58
1726836317166,-63
1726836317174,-65
1726836317182,-68
1726836317190,-69
1726836317198,-65
1726836317206,-50
1726836317214,-34
1726836317222,-26
1726836317230,-28
1726836317238,-38
1726836317246,-55
1726836317254,-75
1726836317262,-90
1726836317270,-90
1726836317278,-79
1726836317286,-70
1726836317294,-58
1726836317302,-50
1726836317310,-48
1726836317318,-99
1726836317326,-69
1726836317334,307
1726836317342,825
1726836317350,815
1726836317358,-13
1726836317366,-1034
1726836317374,-1350
1726836317382,-808
1726836317390,-96
1726836317398,196
1726836317406,145
1726836317414,51
1726836317422,-1
1726836317430,-17
1726836317438,-25
1726836317446,-38
1726836317454,-43
1726836317462,-44
1726836317470,-43
1726836317478,-46
1726836317486,-50
1726836317494,-51
1726836317502,-46
1726836317510,-38
1726836317518,-35
1726836317526,-37
1726836317534,-37
1726836317542,-37
1726836317550,-37
1726836317558,-34
1726836317566,-25
1726836317574,-20
1726836317582,-24
1726836317590,-30
1726836317598,-35
1726836317606,-37
1726836317614,-39
1726836317622,-43
1726836317630,-46
1726836317638,-55
1726836317646,-61
1726836317654,-61
1726836317662,-54
1726836317670,-51
1726836317678,-52
1726836317686,-61
1726836317694,-71
1726836317702,-83
1726836317710,-95
1726836317718,-113
1726836317726,-123
1726836317734,-116
1726836317742,-98
1726836317750,-86
1726836317758,-79
1726836317766,-70
1726836317774,-56
1726836317782,-43
1726836317790,-37
1726836317798,-32
1726836317806,-27
1726836317814,-30
1726836317822,-38
1726836317830,-48
1726836317838,-50
1726836317846,-54
1726836317854,-57
1726836317862,-65
1726836317870,-76
1726836317878,-80
1726836317886,-84
1726836317894,-83
1726836317902,-80
1726836317910,-79
1726836317918,-81
1726836317926,-78
1726836317934,-76
1726836317942,-76
1726836317950,-73
1726836317958,-67
1726836317966,-65
1726836317974,-69
1726836317982,-73
1726836317990,-72
1726836317998,-74
1726836318006,-70
1726836318014,-67
1726836318022,-64
1726836318030,-64
1726836318038,-68
1726836318046,-70
1726836318054,-67
1726836318062,-66
1726836318070,-66
1726836318078,-64
1726836318086,-62
1726836318094,-61
1726836318102,-64
1726836318110,-70
1726836318118,-70
1726836318126,-67
1726836318134,-55
1726836318142,-33
1726836318150,-17
1726836318158,-23
1726836318166,-47
1726836318174,-67
1726836318182,-74
1726836318190,-82
1726836318198,-91
1726836318206,-97
1726836318214,-90
1726836318222,-75
1726836318230,-58
1726836318238,-44
1726836318246,-61
1726836318254,-108
1726836318262,65
1726836318270,559
1726836318278,899
1726836318286,489
1726836318294,-528
1726836318302,-1278
1726836318310,-1145
1726836318318,-437
1726836318326,96
1726836318334,180
1726836318342,82
1726836318350,12
1726836318358,-20
1726836318366,-25
1726836318374,-40
1726836318382,-51
1726836318390,-52
1726836318398,-45
1726836318406,-46
1726836318414,-46
1726836318422,-48
1726836318430,-45
1726836318438,-43
1726836318446,-43
1726836318454,-43
1726836318462,-38
1726836318470,-36
1726836318478,-35
1726836318486,-35
1726836318494,-29
1726836318502,-24
1726836318510,-22
1726836318518,-23
1726836318526,-26
1726836318534,-28
1726836318542,-32
1726836318550,-39
1726836318558,-47
1726836318566,-49
1726836318574,-52
1726836318582,-51
1726836318590,-48
1726836318598,-48
1726836318606,-49
1726836318614,-57
1726836318622,-71
1726836318630,-86
1726836318638,-97
1726836318646,-105
1726836318654,-108
1726836318662,-107
1726836318670,-106
1726836318678,-107
1726836318686,-99
1726836318694,-84
1726836318702,-72
1726836318710,-66
1726836318718,-59
1726836318726,-46
1726836318734,-33
1726836318742,-25
1726836318750,-26
1726836318758,-29
1726836318766,-37
1726836318774,-43
1726836318782,-50
1726836318790,-59
1726836318798,-65
1726836318806,-67
1726836318814,-67
1726836318822,-76
1726836318830,-86
1726836318838,-89
1726836318846,-83
1726836318854,-72
1726836318862,-67
1726836318870,-73
1726836318878,-76
1726836318886,-78
1726836318894,-79
1726836318902,-76
1726836318910,-72
1726836318918,-71
1726836318926,-70
1726836318934,-68
1726836318942,-63
1726836318950,-64
1726836318958,-68
1726836318966,-66
1726836318974,-63
1726836318982,-61
1726836318990,-64
1726836318998,-65
1726836319006,-64
1726836319014,-63
1726836319022,-60
1726836319030,-62
1726836319038,-64
1726836319046,-60
1726836319054,-56
1726836319062,-59
1726836319070,-68
1726836319078,-77
1726836319086,-74
1726836319094,-64
1726836319102,-53
1726836319110,-38
1726836319118,-21
1726836319126,-18
1726836319134,-34
1726836319142,-61
1726836319150,-78
1726836319158,-88
1726836319166,-92
1726836319174,-92
1726836319182,-83
1726836319190,-64
1726836319198,-53
1726836319206,-43
1726836319214,-57
1726836319222,-113
1726836319230,14
1726836319238,488
1726836319246,886
1726836319254,584
1726836319262,-398
1726836319270,-1217
1726836319278,-1177
1726836319286,-499
1726836319294,58
1726836319302,167
1726836319310,75
1726836319318,13
1726836319326,-14
1726836319334,-24
1726836319342,-36
1726836319350,-50
1726836319358,-53
1726836319366,-52
1726836319374,-49
1726836319382,-46
1726836319390,-50
1726836319398,-49
1726836319406,-47
1726836319414,-43
1726836319422,-43
1726836319430,-42
1726836319438,-38
1726836319446,-33
1726836319454,-29
1726836319462,-23
1726836319470,-22
1726836319478,-22
1726836319486,-27
1726836319494,-31
1726836319502,-33
1726836319510,-33
1726836319518,-32
1726836319526,-31
1726836319534,-36
1726836319542,-42
1726836319550,-47
1726836319558,-48
1726836319566,-45
1726836319574,-46
1726836319582,-56
1726836319590,-74
1726836319598,-85